Scanning frequency (eV)      Vibronic intensity (a.u.)      Total intensity (a.u.)
2.5950000e+00                  6.7850335e-17                  6.7850335e-17
2.5951000e+00                  8.2700722e-17                  8.2700722e-17
2.5952000e+00                  1.0602883e-16                  1.0602883e-16
2.5953000e+00                  1.3928483e-16                  1.3928483e-16
2.5954000e+00                  1.8336245e-16                  1.8336245e-16
2.5955000e+00                  2.3839121e-16                  2.3839121e-16
2.5956000e+00                  3.0373433e-16                  3.0373433e-16
2.5957000e+00                  3.7820144e-16                  3.7820144e-16
2.5958000e+00                  4.6035595e-16                  4.6035595e-16
2.5959000e+00                  5.4869838e-16                  5.4869838e-16
2.5960000e+00                  6.4151871e-16                  6.4151871e-16
2.5961000e+00                  7.3637279e-16                  7.3637279e-16
2.5962000e+00                  8.2939950e-16                  8.2939950e-16
2.5963000e+00                  9.1491824e-16                  9.1491824e-16
2.5964000e+00                  9.8576964e-16                  9.8576964e-16
2.5965000e+00                  1.0346055e-15                  1.0346055e-15
2.5966000e+00                  1.0558759e-15                  1.0558759e-15
2.5967000e+00                  1.0478224e-15                  1.0478224e-15
2.5968000e+00                  1.0136200e-15                  1.0136200e-15
2.5969000e+00                  9.6104731e-16                  9.6104731e-16
2.5970000e+00                  9.0063036e-16                  9.0063036e-16
2.5971000e+00                  8.4283886e-16                  8.4283886e-16
2.5972000e+00                  7.9531476e-16                  7.9531476e-16
2.5973000e+00                  7.6109902e-16                  7.6109902e-16
2.5974000e+00                  7.3841445e-16                  7.3841445e-16
2.5975000e+00                  7.2196521e-16                  7.2196521e-16
2.5976000e+00                  7.0518964e-16                  7.0518964e-16
2.5977000e+00                  6.8265235e-16                  6.8265235e-16
2.5978000e+00                  6.5183794e-16                  6.5183794e-16
2.5979000e+00                  6.1392798e-16                  6.1392798e-16
2.5980000e+00                  5.7354667e-16                  5.7354667e-16
2.5981000e+00                  5.3778950e-16                  5.3778950e-16
2.5982000e+00                  5.1499999e-16                  5.1499999e-16
2.5983000e+00                  5.1370292e-16                  5.1370292e-16
2.5984000e+00                  5.4188075e-16                  5.4188075e-16
2.5985000e+00                  6.0649096e-16                  6.0649096e-16
2.5986000e+00                  7.1290096e-16                  7.1290096e-16
2.5987000e+00                  8.6389649e-16                  8.6389649e-16
2.5988000e+00                  1.0581708e-15                  1.0581708e-15
2.5989000e+00                  1.2886760e-15                  1.2886760e-15
2.5990000e+00                  1.5417164e-15                  1.5417164e-15
2.5991000e+00                  1.7978953e-15                  1.7978953e-15
2.5992000e+00                  2.0357482e-15                  2.0357482e-15
2.5993000e+00                  2.2380584e-15                  2.2380584e-15
2.5994000e+00                  2.3996923e-15                  2.3996923e-15
2.5995000e+00                  2.5347545e-15                  2.5347545e-15
2.5996000e+00                  2.6803991e-15                  2.6803991e-15
2.5997000e+00                  2.8949792e-15                  2.8949792e-15
2.5998000e+00                  3.2493554e-15                  3.2493554e-15
2.5999000e+00                  3.8118458e-15                  3.8118458e-15
2.6000000e+00                  4.6291922e-15                  4.6291922e-15
2.6001000e+00                  5.7076763e-15                  5.7076763e-15
2.6002000e+00                  6.9997005e-15                  6.9997005e-15
2.6003000e+00                  8.4011077e-15                  8.4011077e-15
2.6004000e+00                  9.7626725e-15                  9.7626725e-15
2.6005000e+00                  1.0915435e-14                  1.0915435e-14
2.6006000e+00                  1.1704773e-14                  1.1704773e-14
2.6007000e+00                  1.2024172e-14                  1.2024172e-14
2.6008000e+00                  1.1838564e-14                  1.1838564e-14
2.6009000e+00                  1.1190022e-14                  1.1190022e-14
2.6010000e+00                  1.0184527e-14                  1.0184527e-14
2.6011000e+00                  8.9650945e-15                  8.9650945e-15
2.6012000e+00                  7.6806598e-15                  7.6806598e-15
2.6013000e+00                  6.4601576e-15                  6.4601576e-15
2.6014000e+00                  5.3975349e-15                  5.3975349e-15
2.6015000e+00                  4.5483216e-15                  4.5483216e-15
2.6016000e+00                  3.9344156e-15                  3.9344156e-15
2.6017000e+00                  3.5524788e-15                  3.5524788e-15
2.6018000e+00                  3.3825772e-15                  3.3825772e-15
2.6019000e+00                  3.3959502e-15                  3.3959502e-15
2.6020000e+00                  3.5624124e-15                  3.5624124e-15
2.6021000e+00                  3.8580447e-15                  3.8580447e-15
2.6022000e+00                  4.2728314e-15                  4.2728314e-15
2.6023000e+00                  4.8167624e-15                  4.8167624e-15
2.6024000e+00                  5.5226143e-15                  5.5226143e-15
2.6025000e+00                  6.4444881e-15                  6.4444881e-15
2.6026000e+00                  7.6528021e-15                  7.6528021e-15
2.6027000e+00                  9.2280161e-15                  9.2280161e-15
2.6028000e+00                  1.1256158e-14                  1.1256158e-14
2.6029000e+00                  1.3828744e-14                  1.3828744e-14
2.6030000e+00                  1.7047673e-14                  1.7047673e-14
2.6031000e+00                  2.1032065e-14                  2.1032065e-14
2.6032000e+00                  2.5919441e-14                  2.5919441e-14
2.6033000e+00                  3.1850077e-14                  3.1850077e-14
2.6034000e+00                  3.8924069e-14                  3.8924069e-14
2.6035000e+00                  4.7128975e-14                  4.7128975e-14
2.6036000e+00                  5.6251850e-14                  5.6251850e-14
2.6037000e+00                  6.5807828e-14                  6.5807828e-14
2.6038000e+00                  7.5027514e-14                  7.5027514e-14
2.6039000e+00                  8.2937041e-14                  8.2937041e-14
2.6040000e+00                  8.8534508e-14                  8.8534508e-14
2.6041000e+00                  9.1024207e-14                  9.1024207e-14
2.6042000e+00                  9.0035058e-14                  9.0035058e-14
2.6043000e+00                  8.5742427e-14                  8.5742427e-14
2.6044000e+00                  7.8841184e-14                  7.8841184e-14
2.6045000e+00                  7.0372608e-14                  7.0372608e-14
2.6046000e+00                  6.1463833e-14                  6.1463833e-14
2.6047000e+00                  5.3069909e-14                  5.3069909e-14
2.6048000e+00                  4.5801366e-14                  4.5801366e-14
2.6049000e+00                  3.9880235e-14                  3.9880235e-14
2.6050000e+00                  3.5215250e-14                  3.5215250e-14
2.6051000e+00                  3.1546671e-14                  3.1546671e-14
2.6052000e+00                  2.8597948e-14                  2.8597948e-14
2.6053000e+00                  2.6185876e-14                  2.6185876e-14
2.6054000e+00                  2.4271171e-14                  2.4271171e-14
2.6055000e+00                  2.2960972e-14                  2.2960972e-14
2.6056000e+00                  2.2490821e-14                  2.2490821e-14
2.6057000e+00                  2.3211661e-14                  2.3211661e-14
2.6058000e+00                  2.5591088e-14                  2.5591088e-14
2.6059000e+00                  3.0216242e-14                  3.0216242e-14
2.6060000e+00                  3.7768345e-14                  3.7768345e-14
2.6061000e+00                  4.8934621e-14                  4.8934621e-14
2.6062000e+00                  6.4237692e-14                  6.4237692e-14
2.6063000e+00                  8.3795746e-14                  8.3795746e-14
2.6064000e+00                  1.0707073e-13                  1.0707073e-13
2.6065000e+00                  1.3269915e-13                  1.3269915e-13
2.6066000e+00                  1.5850784e-13                  1.5850784e-13
2.6067000e+00                  1.8177884e-13                  1.8177884e-13
2.6068000e+00                  1.9974495e-13                  1.9974495e-13
2.6069000e+00                  2.1019884e-13                  2.1019884e-13
2.6070000e+00                  2.1202925e-13                  2.1202925e-13
2.6071000e+00                  2.0549766e-13                  2.0549766e-13
2.6072000e+00                  1.9215004e-13                  1.9215004e-13
2.6073000e+00                  1.7439043e-13                  1.7439043e-13
2.6074000e+00                  1.5486889e-13                  1.5486889e-13
2.6075000e+00                  1.3589768e-13                  1.3589768e-13
2.6076000e+00                  1.1908060e-13                  1.1908060e-13
2.6077000e+00                  1.0523838e-13                  1.0523838e-13
2.6078000e+00                  9.4589061e-14                  9.4589061e-14
2.6079000e+00                  8.7050386e-14                  8.7050386e-14
2.6080000e+00                  8.2508036e-14                  8.2508036e-14
2.6081000e+00                  8.0938015e-14                  8.0938015e-14
2.6082000e+00                  8.2357236e-14                  8.2357236e-14
2.6083000e+00                  8.6662569e-14                  8.6662569e-14
2.6084000e+00                  9.3470518e-14                  9.3470518e-14
2.6085000e+00                  1.0206895e-13                  1.0206895e-13
2.6086000e+00                  1.1154158e-13                  1.1154158e-13
2.6087000e+00                  1.2104618e-13                  1.2104618e-13
2.6088000e+00                  1.3015149e-13                  1.3015149e-13
2.6089000e+00                  1.3909839e-13                  1.3909839e-13
2.6090000e+00                  1.4886930e-13                  1.4886930e-13
2.6091000e+00                  1.6102352e-13                  1.6102352e-13
2.6092000e+00                  1.7735467e-13                  1.7735467e-13
2.6093000e+00                  1.9950330e-13                  1.9950330e-13
2.6094000e+00                  2.2866897e-13                  2.2866897e-13
2.6095000e+00                  2.6549889e-13                  2.6549889e-13
2.6096000e+00                  3.1011595e-13                  3.1011595e-13
2.6097000e+00                  3.6215566e-13                  3.6215566e-13
2.6098000e+00                  4.2067871e-13                  4.2067871e-13
2.6099000e+00                  4.8394226e-13                  4.8394226e-13
2.6100000e+00                  5.4920289e-13                  5.4920289e-13
2.6101000e+00                  6.1287915e-13                  6.1287915e-13
2.6102000e+00                  6.7140370e-13                  6.7140370e-13
2.6103000e+00                  7.2288459e-13                  7.2288459e-13
2.6104000e+00                  7.6931721e-13                  7.6931721e-13
2.6105000e+00                  8.1868429e-13                  8.1868429e-13
2.6106000e+00                  8.8602268e-13                  8.8602268e-13
2.6107000e+00                  9.9255670e-13                  9.9255670e-13
2.6108000e+00                  1.1623486e-12                  1.1623486e-12
2.6109000e+00                  1.4165634e-12                  1.4165634e-12
2.6110000e+00                  1.7662752e-12                  1.7662752e-12
2.6111000e+00                  2.2055653e-12                  2.2055653e-12
2.6112000e+00                  2.7071810e-12                  2.7071810e-12
2.6113000e+00                  3.2229116e-12                  3.2229116e-12
2.6114000e+00                  3.6898535e-12                  3.6898535e-12
2.6115000e+00                  4.0419778e-12                  4.0419778e-12
2.6116000e+00                  4.2244054e-12                  4.2244054e-12
2.6117000e+00                  4.2063902e-12                  4.2063902e-12
2.6118000e+00                  3.9889705e-12                  3.9889705e-12
2.6119000e+00                  3.6048089e-12                  3.6048089e-12
2.6120000e+00                  3.1103446e-12                  3.1103446e-12
2.6121000e+00                  2.5729371e-12                  2.5729371e-12
2.6122000e+00                  2.0570806e-12                  2.0570806e-12
2.6123000e+00                  1.6135016e-12                  1.6135016e-12
2.6124000e+00                  1.2733411e-12                  1.2733411e-12
2.6125000e+00                  1.0475539e-12                  1.0475539e-12
2.6126000e+00                  9.3011178e-13                  9.3011178e-13
2.6127000e+00                  9.0308325e-13                  9.0308325e-13
2.6128000e+00                  9.4210013e-13                  9.4210013e-13
2.6129000e+00                  1.0215785e-12                  1.0215785e-12
2.6130000e+00                  1.1197261e-12                  1.1197261e-12
2.6131000e+00                  1.2234892e-12                  1.2234892e-12
2.6132000e+00                  1.3331707e-12                  1.3331707e-12
2.6133000e+00                  1.4658039e-12                  1.4658039e-12
2.6134000e+00                  1.6558546e-12                  1.6558546e-12
2.6135000e+00                  1.9517870e-12                  1.9517870e-12
2.6136000e+00                  2.4075927e-12                  2.4075927e-12
2.6137000e+00                  3.0695802e-12                  3.0695802e-12
2.6138000e+00                  3.9603854e-12                  3.9603854e-12
2.6139000e+00                  5.0639165e-12                  5.0639165e-12
2.6140000e+00                  6.3161220e-12                  6.3161220e-12
2.6141000e+00                  7.6062574e-12                  7.6062574e-12
2.6142000e+00                  8.7911410e-12                  8.7911410e-12
2.6143000e+00                  9.7209468e-12                  9.7209468e-12
2.6144000e+00                  1.0270613e-11                  1.0270613e-11
2.6145000e+00                  1.0367917e-11                  1.0367917e-11
2.6146000e+00                  1.0009406e-11                  1.0009406e-11
2.6147000e+00                  9.2590992e-12                  9.2590992e-12
2.6148000e+00                  8.2308238e-12                  8.2308238e-12
2.6149000e+00                  7.0606231e-12                  7.0606231e-12
2.6150000e+00                  5.8784095e-12                  5.8784095e-12
2.6151000e+00                  4.7869446e-12                  4.7869446e-12
2.6152000e+00                  3.8522134e-12                  3.8522134e-12
2.6153000e+00                  3.1045414e-12                  3.1045414e-12
2.6154000e+00                  2.5465555e-12                  2.5465555e-12
2.6155000e+00                  2.1633313e-12                  2.1633313e-12
2.6156000e+00                  1.9314039e-12                  1.9314039e-12
2.6157000e+00                  1.8254454e-12                  1.8254454e-12
2.6158000e+00                  1.8230224e-12                  1.8230224e-12
2.6159000e+00                  1.9083433e-12                  1.9083433e-12
2.6160000e+00                  2.0754589e-12                  2.0754589e-12
2.6161000e+00                  2.3306690e-12                  2.3306690e-12
2.6162000e+00                  2.6935186e-12                  2.6935186e-12
2.6163000e+00                  3.1960274e-12                  3.1960274e-12
2.6164000e+00                  3.8805162e-12                  3.8805162e-12
2.6165000e+00                  4.7972230e-12                  4.7972230e-12
2.6166000e+00                  6.0033842e-12                  6.0033842e-12
2.6167000e+00                  7.5651918e-12                  7.5651918e-12
2.6168000e+00                  9.5626414e-12                  9.5626414e-12
2.6169000e+00                  1.2094648e-11                  1.2094648e-11
2.6170000e+00                  1.5278501e-11                  1.5278501e-11
2.6171000e+00                  1.9235446e-11                  1.9235446e-11
2.6172000e+00                  2.4055485e-11                  2.4055485e-11
2.6173000e+00                  2.9741378e-11                  2.9741378e-11
2.6174000e+00                  3.6143831e-11                  3.6143831e-11
2.6175000e+00                  4.2912278e-11                  4.2912278e-11
2.6176000e+00                  4.9491161e-11                  4.9491161e-11
2.6177000e+00                  5.5183316e-11                  5.5183316e-11
2.6178000e+00                  5.9279394e-11                  5.9279394e-11
2.6179000e+00                  6.1222879e-11                  6.1222879e-11
2.6180000e+00                  6.0758156e-11                  6.0758156e-11
2.6181000e+00                  5.8007286e-11                  5.8007286e-11
2.6182000e+00                  5.3443477e-11                  5.3443477e-11
2.6183000e+00                  4.7767452e-11                  4.7767452e-11
2.6184000e+00                  4.1729615e-11                  4.1729615e-11
2.6185000e+00                  3.5959301e-11                  3.5959301e-11
2.6186000e+00                  3.0854913e-11                  3.0854913e-11
2.6187000e+00                  2.6560504e-11                  2.6560504e-11
2.6188000e+00                  2.3019835e-11                  2.3019835e-11
2.6189000e+00                  2.0073525e-11                  2.0073525e-11
2.6190000e+00                  1.7557724e-11                  1.7557724e-11
2.6191000e+00                  1.5373288e-11                  1.5373288e-11
2.6192000e+00                  1.3514479e-11                  1.3514479e-11
2.6193000e+00                  1.2065341e-11                  1.2065341e-11
2.6194000e+00                  1.1182044e-11                  1.1182044e-11
2.6195000e+00                  1.1078137e-11                  1.1078137e-11
2.6196000e+00                  1.2019419e-11                  1.2019419e-11
2.6197000e+00                  1.4321603e-11                  1.4321603e-11
2.6198000e+00                  1.8333607e-11                  1.8333607e-11
2.6199000e+00                  2.4387308e-11                  2.4387308e-11
2.6200000e+00                  3.2703990e-11                  3.2703990e-11
2.6201000e+00                  4.3267502e-11                  4.3267502e-11
2.6202000e+00                  5.5698460e-11                  5.5698460e-11
2.6203000e+00                  6.9181934e-11                  6.9181934e-11
2.6204000e+00                  8.2500801e-11                  8.2500801e-11
2.6205000e+00                  9.4201205e-11                  9.4201205e-11
2.6206000e+00                  1.0286971e-10                  1.0286971e-10
2.6207000e+00                  1.0745122e-10                  1.0745122e-10
2.6208000e+00                  1.0750701e-10                  1.0750701e-10
2.6209000e+00                  1.0332142e-10                  1.0332142e-10
2.6210000e+00                  9.5815876e-11                  9.5815876e-11
2.6211000e+00                  8.6299534e-11                  8.6299534e-11
